 -7.7656163e+000 -6.3068812e+001  2.5480052e+001 -9.5988972e+001  3.9976441e+001 -7.1990618e+001  3.2426900e+000  7.4628835e+000 -6.4201387e+001  9.4627989e+001 -9.2943207e+001  1.0919600e+002 -8.3944637e+001  4.4285989e+001 -5.6365356e+001 -1.8798193e+000 -7.4463395e+001  2.4676851e+001 -1.4268007e+002  9.3983212e+001 -2.1462268e+002  1.3824713e+002 -2.2019120e+002  1.1591990e+002 -1.6272876e+002  8.2334553e+001  9.9787523e+001  4.8262442e+002  3.0299801e+002 -7.7087236e+001 -3.1811127e+002 -3.9525951e+002 -2.5307977e+002 -1.7239814e+002 -1.0749859e+001 -1.1328153e+002  1.8058104e+001 -5.5457802e+001 -2.0163749e+001 -4.3200640e+000 -5.2866382e+001  5.4498683e+000 -9.3227524e+000 -6.8871855e+001  9.5109460e+001 -1.6661863e+002  1.8220094e+002 -2.2184937e+002  2.0886677e+002 -2.0398783e+002  1.8706732e+002 -1.6013089e+002  1.5775570e+002 -1.2018226e+002  1.4515634e+002 -5.2506176e+001  8.0337416e+001  5.3380456e+001 -4.1730701e+001  1.7409526e+002 -1.5234471e+002  2.0997260e+002 -1.6480288e+002  1.2409092e+002 -6.7840201e+001 -2.2185267e+001  3.2209020e+001 -1.0343107e+002  3.0517947e+001 -6.0649088e+001 -6.7416539e+001  3.0613568e+001 -1.4680453e+002  5.2366443e+001 -1.1688199e+002 -3.3194221e+001 -1.5337866e+001 -1.1829368e+002  4.2000436e+001 -1.1449166e+002 -3.4024065e+000 -1.6568479e+001 -9.4742772e+001  6.3829505e+001 -1.2194300e+002  4.1794769e+001 -5.0526480e+001 -5.1852016e+001  3.3619470e+001 -1.0320027e+002  3.6838296e+001 -5.4353788e+001 -5.9741375e+001  5.2321166e+001 -1.5594828e+002  1.1321849e+002 -1.5184075e+002  5.3626445e+001 -4.6293061e+001 -6.7659690e+001  5.7934139e+001 -1.3820233e+002  8.8589886e+001 -1.0711463e+002  2.8337387e+001 -1.7593902e+001 -4.4350951e+001  6.6381823e+001 -5.7452918e+001  8.3615857e+001 -3.5232088e+001  4.5325218e+001 -4.3923233e+001  2.5403508e+001 -6.7002404e+001  1.7212770e+001 -7.9878116e+001 -5.9382082e+000 -3.8968457e+001 -6.6643643e+001  2.2506674e+001 -1.1642248e+002  4.4382466e+001 -9.3320147e+001  2.8190155e+001  1.9150036e+002  4.0861932e+002  3.9271311e+002 -1.5513114e+002 -2.9487480e+002 -3.5360341e+002 -3.6383472e+002  2.0408630e+001 -2.3050037e+002  1.1328513e+002 -1.6280915e+002  6.1480640e+001 -5.0613734e+001 -3.1673103e+001  2.0572092e+001 -5.6697140e+001  6.1030651e+000 -1.0839508e+000 -5.1055539e+001  5.2610302e+001 -6.3961342e+001  3.0588601e+001  1.1932153e+001 -5.1532340e+001  1.0954668e+002 -1.3161417e+002  1.7491521e+002 -1.3092846e+002  1.6793435e+002 -7.0585439e+001  1.0621696e+002  1.5550591e+001  2.8508670e+001  8.7523018e+001 -5.5847924e+001  1.2728584e+002 -1.1594966e+002  1.2358137e+002 -1.2451293e+002  6.4999947e+001 -6.8065450e+001 -4.6184973e+001  3.1275391e+001 -1.6087009e+002  1.0558143e+002 -2.1662448e+002  1.1488385e+002 -1.9582487e+002  5.5707819e+001 -1.2624226e+002 -1.6042865e+001 -4.7001545e+001 -6.2545147e+001 -1.3201343e+001 -6.6632156e+001 -6.9250944e+000 -4.8677340e+001 -2.9981636e+001 -1.9414308e+001 -4.5186019e+001  2.3984454e+000 -5.6380491e+001  1.1337260e+000 -5.5267687e+001 -1.2097085e+001 -3.9323227e+001 -3.3638976e+001 -2.1173336e+001 -5.1884220e+001 -2.9950818e+000 -8.0178004e+001  3.4403305e+001 -1.1497992e+002  7.1491389e+001 -1.4448723e+002  8.2801421e+001 -1.2507139e+002  5.5159436e+001 -6.1381574e+001  1.0389881e+000  1.5408361e+001 -1.8849155e+001  3.3827161e+001  2.1104703e+001 -3.9263571e+001  7.3404944e+001 -1.1044241e+002  8.4667764e+001 -1.1523273e+002  1.4428118e+001 -2.4218134e+001 -9.9958769e+001  7.8229208e+001 -1.7445032e+002  1.0729103e+002 -1.5494966e+002  6.0230983e+001 -5.6430756e+001  1.4672486e+002  4.7497217e+002  3.3785918e+002  5.6294820e+001 -3.8388288e+002 -2.6353273e+002 -4.1120216e+002  1.0832843e+000 -1.9124117e+002  7.8102096e+001 -1.2197349e+002  4.7386108e+001 -3.3685795e+001 -3.6155935e+001  6.5712501e+001 -1.1746623e+002  1.3249361e+002 -1.5323848e+002  1.3885882e+002 -1.2981178e+002  1.0099629e+002 -6.8754002e+001  4.5166552e+001 -3.5711746e+000  3.3771816e+000  4.1769963e+001 -8.9627279e+000  5.8051960e+001  1.6252837e+001  5.4660365e+001  5.8750247e+001  2.3426699e+001  8.9840904e+001 -9.2562465e+000  9.3810961e+001 -2.6770374e+001  6.9628437e+001 -3.2472268e+001  4.0323627e+001 -3.5458155e+001  1.3259913e+001 -4.3196898e+001 -2.5351553e+000 -4.5429196e+001 -1.8942660e+001 -4.7962025e+001 -3.1937529e+001 -5.1108929e+001 -2.9795297e+001 -5.5516113e+001 -2.4626044e+001 -5.7068264e+001 -1.8602509e+001 -4.0206153e+001 -3.0344563e+001 -1.8598013e+001 -3.9019452e+001  2.3611009e-001 -4.3423679e+001  1.0288369e+001 -4.7032155e+001  2.5201242e+001 -6.5613423e+001  4.8698810e+001 -8.6078833e+001  5.6831336e+001 -7.3525455e+001  1.8957418e+001 -2.2115779e+001 -5.0427369e+001  3.7478328e+001 -8.2993061e+001  3.5950668e+001 -4.3117426e+001 -3.6802748e+001  4.3012593e+001 -1.0597502e+002  7.6217189e+001 -8.8384108e+001  1.7409422e+001  1.2475906e+001 -8.4758258e+001  1.1566638e+002 -1.3090843e+002  1.3212653e+002 -8.1738030e+001  8.7774334e+001 -6.1931516e+000  2.6042819e+001  1.0127412e+001  2.2886375e+000 -9.6319564e+000 -1.6648374e+001 -3.5154151e+000 -7.3310127e+001  5.7640918e+001 -1.4557716e+002  1.1312766e+002 -1.7101673e+002  8.9726726e+001 -9.8636966e+001  7.4045536e-001  7.4190454e+001  2.2943747e+002  5.9733318e+002  1.7831289e+002 -7.6302524e+001 -3.1619964e+002 -3.3349889e+002 -1.4068540e+002 -1.3535023e+002  1.0839076e+001 -8.8529560e+001  3.2454934e+001 -6.9912949e+001  3.9374611e+001 -5.5137149e+001  2.5130607e+001 -2.5036378e+001 -1.4065400e+001  2.3362031e+001 -4.6928022e+001  3.5518649e+001 -2.0685620e+001 -1.8026034e+001  7.1812883e+001 -1.0052157e+002  1.4323573e+002 -1.0961598e+002  1.0455128e+002  7.3440591e+000 -2.5935231e+001  1.7293133e+002 -1.5169334e+002  2.5984244e+002 -1.6233339e+002  2.0510967e+002 -7.9880613e+001  7.9222152e+001  1.1268095e+000 -9.7661853e-001  5.6357039e+000  3.8749278e+000 -4.8224535e+001  3.2520294e+001 -8.3734625e+001  1.6809568e+001 -5.3140639e+001 -4.6851615e+001  2.1917001e+000 -1.0481552e+002  3.2504716e+001 -1.1857035e+002  2.3258115e+001 -8.5337421e+001 -1.2452038e+001 -3.7454236e+001 -4.8593593e+001  5.2151719e+000 -7.9045112e+001  3.7986942e+001 -9.8903239e+001  5.0186255e+001 -8.9725015e+001  2.5204951e+001 -4.4781817e+001 -3.2907503e+001  1.1725358e+001 -7.6718051e+001  2.9858971e+001 -7.8376237e+001  1.2527048e+000 -3.5419776e+001 -4.3893895e+001 -1.6612376e+000 -5.7253590e+001 -1.6174185e+001 -2.4975414e+001 -6.0901546e+001  1.5841736e+001 -8.5342820e+001  1.7998363e+001 -6.4073355e+001 -2.5055258e+001 -1.5725187e+001 -6.8627518e+001  1.7019812e+001 -8.3235531e+001  1.0987610e+001 -5.7167152e+001 -1.7167363e+000 -2.3865917e+001  3.0339014e-001 -3.4117010e+000  2.0990460e+001  6.0269118e+000 -2.0922572e+000  1.8575771e+001 -6.1084385e+001  5.6584092e+001 -1.3245333e+002  8.6016273e+001 -1.6318907e+002  7.8680520e+001 -1.3637363e+002  3.0735811e+001 -7.7451663e+001 -2.2272842e+001 -3.0806379e+001 -4.5707133e+001  4.4850070e+001  2.2880826e+002  5.2731384e+002  2.3470097e+002 -5.2231028e+001 -3.6266868e+002 -2.3870331e+002 -2.7572338e+002 -2.3379790e+001 -1.0167041e+002 -2.9864396e+001 -2.8653654e-001 -8.7094280e+001  6.3734310e+001 -1.1083283e+002  5.8243330e+001 -6.5936574e+001  2.0781958e+000  1.0519705e+001 -6.3344848e+001  6.1907563e+001 -7.9996536e+001  5.7849543e+001 -4.8700522e+001  2.2630942e+001  9.0523833e-001  4.4842129e-001  1.1122538e+001  2.5756566e+001 -1.5587645e+001  9.3404703e+001 -6.3719882e+001  1.4473739e+002 -9.0790053e+001  1.3759036e+002 -6.0189977e+001  5.1456640e+001  1.3349545e+001 -5.7925767e+001  7.3824064e+001 -1.1384290e+002  6.3834942e+001 -7.9961218e+001 -2.1516154e+001  3.8199359e+000 -1.1722604e+002  5.6148575e+001 -1.3963479e+002  2.7663638e+001 -7.9938706e+001 -6.2025255e+001  7.8660498e+000 -1.2459219e+002  3.9820342e+001 -1.1494078e+002  4.3480999e+000 -5.8280775e+001 -3.4970773e+001 -2.5118604e+001 -2.9402683e+001 -5.2649653e+001  2.3924305e+001 -1.0257864e+002  6.2685976e+001 -1.2704922e+002  5.8023093e+001 -9.6172156e+001  1.4132211e+001 -3.9945317e+001 -3.6306664e+001  2.0957972e-001 -7.1959481e+001  1.5707242e+001 -8.1862484e+001  1.4615173e+001 -6.5954186e+001 -8.8685608e+000 -3.0403818e+001 -4.9612203e+001  4.9742343e+000 -7.7332106e+001  1.3049805e+001 -6.6675483e+001 -2.4181160e+001 -1.5146772e+001 -7.9446797e+001  3.1824819e+001 -1.0559662e+002  2.5920479e+001 -7.5260223e+001 -2.8218052e+001 -1.0671060e+001 -6.5304394e+001  2.3089125e+001 -4.3764129e+001  5.8392398e+000  1.7000502e+001 -4.2981615e+001  4.2742875e+001 -7.8366418e+001  2.3952401e+001 -6.9099117e+001 -2.1787911e+001 -5.7031895e+001 -3.9373713e+001 -6.6197839e+001 -1.8920282e+001 -8.2375562e+001 -1.5751180e+001 -5.9275247e+001 -6.2723865e+001  3.4170304e+001 -1.0476897e+001  5.2822517e+002  2.5616541e+002  1.9025693e+002 -3.8672079e+002 -2.9485140e+002 -3.3908243e+002 -2.0548863e+002  2.7204685e-002 -1.7621535e+002  7.4756553e+001 -1.3317415e+002  2.4061016e+001 -5.2244783e+001 -4.1790236e+001  3.6591963e+000 -4.5239859e+001 -3.1967285e+001  3.1988491e+001 -1.2953695e+002  1.2339309e+002 -1.9701699e+002  1.5235082e+002 -1.6273144e+002  7.4695451e+001 -3.2477821e+001 -6.8965913e+001  1.1669835e+002 -1.5690792e+002  1.8262351e+002 -1.4235251e+002  1.2820634e+002 -4.3321365e+001  1.4025799e+001  4.2595701e+001 -6.0593045e+001  4.8260633e+001 -5.9167140e+001 -1.6353317e+001 -1.8746292e+001 -6.3113721e+001 -1.4031158e+001 -4.2733321e+001 -7.2325338e+001  8.6801175e+000 -1.3378084e+002  2.7209888e+001 -1.3382015e+002 -1.3778089e+001 -8.3225021e+001 -5.5153096e+001 -5.2931350e+001 -4.7691040e+001 -8.4494562e+001  1.2591371e+001 -1.3077567e+002  4.8124387e+001 -1.1303826e+002 -8.4698072e+000 -4.4381188e+000 -1.3532204e+002  1.2508059e+002 -2.3000292e+002  1.7317895e+002 -2.2905241e+002  1.2308300e+002 -1.4461359e+002  1.8962969e+001 -4.7708864e+001 -5.9151632e+001  3.7650912e+000 -9.5474466e+001  2.4150609e+001 -1.0434776e+002  2.9997923e+001 -1.0911430e+002  3.2334972e+001 -1.0292760e+002  2.1839653e+001 -8.3163369e+001 -2.8253796e+000 -5.3467318e+001 -4.4525786e+001 -1.2585788e+001 -7.4621165e+001  3.1897198e+001 -1.0136944e+002  9.0784284e+001 -1.2636526e+002  1.2824607e+002 -1.3287518e+002  1.0822115e+002 -1.1693486e+002  3.8649592e+001 -6.9034628e+001 -3.9703490e+001 -2.6172563e+001 -8.0580913e+001 -1.4381182e+001 -7.7312562e+001 -1.7970567e+001 -8.1969682e+001 -1.5011931e+000 -9.7415063e+001  5.5605230e+001  5.9046920e+001  4.9571597e+002  2.7651943e+002 -5.6190329e+001 -3.2598533e+002 -4.3304582e+002 -2.6197731e+002 -1.8667994e+002 -5.2271201e+001 -7.0801111e+001 -7.6278737e+001  1.3582211e+001 -1.2508861e+002  6.8633017e+001 -1.6161728e+002  1.1545206e+002 -2.0158156e+002  1.5166634e+002 -2.2613251e+002  1.6828907e+002 -2.0159903e+002  1.1740268e+002 -9.1281664e+001 -1.4207879e+001  6.9608875e+001 -1.4469095e+002  1.7627387e+002 -1.7393236e+002  1.7299294e+002 -9.0525841e+001  8.2695554e+001  1.4014112e+001  1.1512968e+001  3.1255623e+001  2.0956342e+001 -4.8363908e+001  7.5209828e+001 -1.1896469e+002  8.1461142e+001 -1.0452493e+002 -8.4388123e+000 -1.7770666e+001 -1.2507227e+002  6.2577499e+001 -1.7085684e+002  4.4492764e+001 -1.2261198e+002 -4.6946597e+001 -1.5743789e+001 -1.4232637e+002  4.7656245e+001 -1.5253886e+002  3.6281671e+001 -1.0106520e+002 -3.0787601e+001 -1.8334859e+001 -7.7531237e+001  1.2157502e+001 -6.6857947e+001 -1.7659079e+001 -1.6196331e+001 -7.2349831e+001  3.7929061e+001 -1.1660413e+002  3.8189324e+001 -8.6222074e+001 -7.8773678e+000 -1.8475819e+001 -7.7483072e+001  2.9080019e+001 -9.1294987e+001 -1.0376523e+001 -1.8775580e+001 -1.0686450e+002  9.3016542e+001 -1.9605995e+002  1.4894984e+002 -2.0830692e+002  1.0446771e+002 -1.1609528e+002  3.4429558e+000  1.1230497e+001 -9.0399139e+001  9.4402510e+001 -1.0555940e+002  1.1178892e+002 -9.4080849e+001  6.3334708e+001 -8.2074459e+001  4.3654271e+001 -1.1670313e+002  4.9498649e+001 -1.6019652e+002  7.7844586e+001 -1.7295750e+002  6.4943770e+001 -1.3640922e+002  1.3736040e+001 -7.4629772e+001 -2.7395045e+001  8.1795921e+001  3.5208683e+002  4.4722445e+002  1.8498736e+001 -2.8069385e+002 -4.1918651e+002 -3.0711025e+002 -2.3152755e+002  5.7764957e+000 -1.7525143e+002  9.2650713e+001 -1.5921265e+002  8.0484030e+001 -9.4972494e+001  1.3221866e+001 -2.0530003e+001 -3.3106827e+001  5.1830312e+000 -6.6188926e+000 -4.1250121e+001  5.0631189e+001 -7.7138551e+001  4.1880371e+001 -3.1838537e+000 -6.5566199e+001  1.5497837e+002 -2.0604096e+002  2.8334216e+002 -2.2758705e+002  2.4548512e+002 -1.0310567e+002  8.1806672e+001  9.2552614e+001 -6.5964878e+001  1.5620322e+002 -7.7665920e+001  5.0799598e+001  2.9106022e+001 -9.5543579e+001  1.0347875e+002 -1.3481151e+002  4.5165193e+001 -3.3022739e+001 -1.1118176e+002  8.6062753e+001 -2.0450018e+002  1.0074575e+002 -1.5594333e+002  3.9494679e+000 -4.1830658e+001 -8.8798479e+001  1.3743600e+001 -7.4951078e+001 -3.7678751e+001  1.4193997e+001 -1.1714820e+002  7.1424648e+001 -1.1572220e+002  3.4635171e+001 -3.5378661e+001 -5.8308551e+001  5.5248232e+001 -1.1618138e+002  7.0682791e+001 -9.1092754e+001  1.8944363e+001 -2.8116956e+001 -4.1844000e+001  1.3515933e+001 -6.3199759e+001  1.9224579e+001 -5.4391972e+001 -1.6906872e+000 -3.8206786e+001 -1.3347260e+001 -1.8907790e+001 -1.5999665e+001  4.7206336e-001 -2.0599345e+001  2.6465603e+001 -3.9432120e+000  3.5728733e+001  1.1789171e+001 -7.3101530e+000  2.4919736e+001 -4.1367884e+001  1.4369652e+001 -4.8881789e+001 -1.9331588e+001 -1.7905985e+001 -6.5823259e+001  1.1120087e+001 -7.3323266e+001  1.4253861e+000 -3.9521662e+001 -4.3816285e+001  6.8765654e+001  1.9037796e+002  5.7622387e+002  1.9633793e+002 -7.2528962e+001 -3.5318159e+002 -3.4036099e+002 -1.9828617e+002 -1.2565760e+002  9.5843683e+000 -9.3742215e+001  4.8299260e+001 -5.9694351e+001  1.3745561e+001  1.2106202e+001 -5.3613269e+001  9.7091068e+001 -1.2399330e+002  1.4909047e+002 -1.3573822e+002  1.3120742e+002 -7.5449497e+001  4.4216259e+001  3.7975415e+001 -5.3568141e+001  1.2899990e+002 -9.6769864e+001  1.4783757e+002 -5.7856547e+001  1.0622026e+002  1.5899360e+001  5.7949526e+001  5.6773032e+001  5.3009821e+001  3.2150098e+001  7.5889843e+001 -1.8148050e+001  7.9086696e+001 -3.3666012e+001  3.2385277e+001 -2.8379756e+000 -3.5074366e+001  2.6822112e+001 -6.3700992e+001  5.6622445e+000 -3.8315134e+001 -4.3400379e+001 -3.1723764e+000 -6.2596008e+001 -1.5118515e+001 -2.3318268e+001 -6.7020205e+001  3.3102666e+001 -9.6247428e+001  3.4205931e+001 -4.7866215e+001 -2.1010707e+001  3.2260399e+001 -7.9035176e+001  6.4509664e+001 -6.4645511e+001  2.2497410e+001 -1.0282946e+001 -1.6629222e+001 -4.6235702e+000  2.9544788e+001 -9.1441474e+001  1.3988171e+002 -1.9555288e+002  2.0078447e+002 -1.8195811e+002  1.0909563e+002 -2.7227352e+001 -8.0399217e+001  1.5583733e+002 -2.1080493e+002  2.0519499e+002 -1.6874039e+002  8.7416017e+001 -1.2417278e+001 -6.7588836e+001  1.1063217e+002 -1.1190506e+002  1.0604722e+002 -3.2390785e+001  2.5571167e+001  7.8744098e+001 -3.4449002e+001  1.0932755e+002 -5.0690547e+001  7.5428983e+001 -6.0599213e+001  8.0252390e+001 -1.3276213e+002  1.5430708e+002 -2.2696887e+002  2.2139291e+002 -2.5980642e+002  1.9639923e+002 -1.7156455e+002  6.3345479e+001 -4.8623972e+000 -5.9837230e+000  4.7590753e+002  3.6161118e+002  3.9246216e+002 -2.8001658e+002 -1.6876354e+002 -3.6347492e+002 -1.1446098e+002 -6.5638018e+001 -5.5135983e+001  1.1741709e+001 -3.4805155e+001 -5.4251949e-001  2.0815854e+001 -5.1283644e+001  9.4110445e+001 -1.1474597e+002  1.4767108e+002 -1.3938594e+002  1.4850044e+002 -9.9516504e+001  8.6922378e+001 -1.2758821e+001  1.3772130e+000  7.0773880e+001 -5.1880903e+001  1.0484263e+002 -3.7747867e+001  7.7743319e+001  3.6665195e+001  1.8105213e+001  1.1450842e+002 -2.9441140e+001  1.4688516e+002 -4.0676585e+001  1.1806019e+002 -1.9961916e+001  5.9900300e+001  2.2025855e+000  4.0462857e+000  1.4146422e+001 -2.7465518e+001  2.1841269e+001 -5.6193982e+001  3.9092300e+001 -9.7641012e+001  7.4297072e+001 -1.3459230e+002  8.9544314e+001 -1.2478823e+002  4.7215803e+001 -5.1023958e+001 -4.5579431e+001  4.1826170e+001 -1.2086942e+002  9.5518194e+001 -1.1735420e+002  6.0443328e+001 -4.1364660e+001 -2.0099907e+001  4.4808309e+001 -8.4956752e+001  7.7598263e+001 -9.7439472e+001  8.4037222e+001 -9.4172236e+001  9.3895713e+001 -1.2881699e+002  1.2394209e+002 -1.5925682e+002  1.3857858e+002 -1.4069532e+002  8.1550680e+001 -4.4895576e+001 -2.7136805e+001  5.8862052e+001 -1.0766775e+002  9.3833893e+001 -1.0311605e+002  4.9175781e+001 -4.7091614e+001  8.9695900e-001 -2.3259311e+001  1.5159166e+001 -5.5357683e+001  8.6893041e+001 -1.1203953e+002  1.4250286e+002 -1.0512473e+002  1.3027879e+002 -3.8429456e+001  3.5504892e+001  2.7818133e+001 -4.4666852e+001  4.6843952e+001 -6.6393774e+001  1.0955154e+001 -2.7345783e+001 -4.9209988e+001  1.2576755e+001 -9.2542441e+001  4.4007603e+001 -9.7587135e+001  3.5873034e+001 -5.3633640e+001  1.9425488e+002  4.2531806e+002  3.9448669e+002 -1.9199699e-001 -3.1333371e+002 -3.0939101e+002 -3.5256391e+002 -4.0299780e+001 -1.4530806e+002  3.5097547e+001 -6.8828724e+001 -3.1174060e+000  1.8200428e+001 -8.9533280e+001  1.0926164e+002 -1.6446222e+002  1.6076957e+002 -1.8005621e+002  1.2404391e+002 -8.7115050e+001  1.2168956e+001  4.5855906e+001 -1.0929077e+002  1.4767011e+002 -1.5098395e+002  1.6011575e+002 -1.0947506e+002  1.1612533e+002 -3.1806684e+001  8.9739532e+001 -4.1334811e+000  1.0324606e+002 -2.8489331e+001  1.3706155e+002 -4.8234475e+001  9.8588979e+001 -1.7569337e+001  1.3505207e+000  5.1355219e+001 -9.0628323e+001  8.0844818e+001 -9.7166729e+001  3.1033571e+001 -3.8679827e+001 -5.0725463e+001  9.7280128e+000 -7.8392442e+001 -1.3905952e+000 -5.2442766e+001 -5.1219607e+001 -1.4151307e+001 -6.6137621e+001 -8.4696061e+000 -4.1128441e+001 -4.5332859e+001  2.0678928e+000 -6.0960439e+001  9.9406316e+000 -4.1803714e+001 -3.4129461e+000 -3.2787674e+001  7.0217509e+000 -5.9694128e+001  3.5218469e+001 -8.8072977e+001  5.1719338e+001 -6.8131012e+001  7.3545416e+000 -4.2366799e+000 -6.3757632e+001  3.9780356e+001 -8.5749259e+001  3.4344581e+001 -4.7924942e+001 -1.1461426e+001 -7.4600811e+000 -1.8523234e+001 -3.2411948e+001  4.3560404e+001 -9.9436199e+001  1.1219424e+002 -1.1065537e+002  1.2954361e+002 -4.6694741e+001  4.3050670e+001  2.0601314e+001 -4.3832842e+001  2.9229167e+001 -4.1586300e+001 -3.5564024e+001  1.3428817e+001 -1.0592225e+002  3.7719207e+001 -9.1894464e+001 -9.4538587e+000 -2.3840712e+001 -7.5425759e+001  2.3888823e+001 -3.5698957e+001  2.5587767e+002  4.6972383e+002  2.1563195e+002 -1.3975432e+002 -3.8403240e+002 -3.8715374e+002 -1.8732430e+002 -1.9336471e+002  8.0768594e+001 -1.9271847e+002  1.2583812e+002 -1.3782387e+002  7.1818936e+001 -3.0416416e+001 -4.3941912e+001  6.8509236e+001 -1.0080138e+002  1.0805170e+002 -1.0280328e+002  8.6638472e+001 -4.1956738e+001  2.4971693e+001  2.8655683e+001 -3.7833343e+001  1.0073394e+002 -6.8716439e+001  1.3433411e+002 -6.5608807e+001  1.3180332e+002 -4.8339735e+000  7.3559705e+001  8.6451135e+001 -1.6487318e+001  1.5578596e+002 -7.6467194e+001  1.7048963e+002 -1.0311632e+002  1.2605674e+002 -7.4046024e+001  4.4117983e+001 -2.0778231e+001 -3.6944172e+001  1.7489746e+001 -6.9320019e+001  2.1189414e+001 -6.7056051e+001 -7.7052470e+000 -5.3711368e+001 -2.0803139e+001 -5.5716204e+001 -4.6878630e-001 -8.6214884e+001  3.6435256e+001 -9.9496515e+001  4.9099314e+001 -7.3810697e+001  1.1771806e+001 -1.1250660e+001 -5.2770563e+001  4.5760148e+001 -8.3581099e+001  5.2712610e+001 -6.7444625e+001  2.6458090e+001 -4.7849430e+001  7.7601175e+000 -4.0730604e+001  7.4467792e+000 -5.0028054e+001  8.2852532e+000 -2.4531660e+001 -3.6538351e+001  3.7297770e+001 -1.1057936e+002  8.8291068e+001 -1.0893573e+002  6.6430844e+001 -3.7437631e+001 -1.7607813e+001  8.3402463e+001 -7.9631863e+001  1.3083241e+002 -7.3551502e+001  5.5410495e+001  1.0435149e+000 -5.4077437e+001  4.5774445e+001 -9.9766578e+001  2.8219309e+001 -7.0482744e+001 -1.5917985e+001 -3.3115177e+001 -3.2432119e+001 -3.2087360e+001 -1.4023042e+001 -4.4785132e+001  1.0539781e+002  3.7731927e+002  4.6723609e+002  1.0456006e+002 -3.3592136e+002 -3.3328474e+002 -4.0194210e+002 -1.2662415e+002 -9.1625406e+001 -5.0432066e+001 -1.5157704e+001 -2.3931293e+001 -1.8028416e+001 -1.0554036e+000 -2.7740718e+001  4.7383859e-001  8.1260606e-001 -4.9341938e+001  6.9752241e+001 -9.4172055e+001  9.3894949e+001 -7.4624908e+001  3.4878761e+001  2.8783339e+001 -5.1593022e+001  1.1960301e+002 -9.1349116e+001  1.3702221e+002 -3.3498237e+001  8.4263479e+001  3.8237316e+001  4.2739217e+001  6.1285934e+001  5.7114108e+001  1.9342051e+001  8.1106104e+001 -3.2622966e+001  6.9031279e+001 -3.1061179e+001  1.5882601e+000  3.4549253e+000 -6.4701316e+001  3.5293600e+001 -9.0952679e+001  2.8351972e+001 -9.3572637e+001  2.1125387e+001 -1.0159703e+002  1.9114867e+001 -1.1206674e+002  2.2712707e+001 -1.0072340e+002  1.6155475e+001 -7.7384528e+001  9.7905509e+000 -6.9782302e+001  3.0952603e+001 -9.1270920e+001  6.1342080e+001 -1.1425050e+002  6.0132620e+001 -6.6941543e+001 -1.5247214e+001  2.9188665e+001 -1.2745273e+002  1.2630205e+002 -1.9284321e+002  1.5730818e+002 -1.8271689e+002  1.1046681e+002 -1.2176615e+002  5.3473602e+001 -8.2696210e+001  3.7619606e+001 -6.2422288e+001  3.6606845e+001 -3.1881564e+001  2.1603429e+001  4.6160934e+001 -3.6341748e+001  7.8351893e+001 -7.7204843e+001  5.2223398e+001 -5.3489915e+001 -3.9636766e+001  5.8143278e+000 -1.0410025e+002  1.5288644e+001 -7.2995540e+001 -5.1824217e+001  2.7351956e+001 -1.5386384e+002  1.1883688e+002 -1.6862573e+002  3.7052278e+002  3.5462529e+002  4.2405767e+002 -2.0324915e+002 -3.5135555e+002 -3.7485953e+002 -3.3119239e+002 -1.5580690e+001 -1.8137032e+002  9.6707242e+001 -1.6125931e+002  9.9149133e+001 -1.0826856e+002  3.0498665e+001 -2.2133028e+000 -8.0601166e+001  1.0908328e+002 -1.5779519e+002  1.6355198e+002 -1.6944829e+002  1.4430248e+002 -1.1514937e+002  9.9055739e+001 -5.0227461e+001  5.1040559e+001  1.2640785e+001  1.2990503e+001  7.9460261e+001 -3.0159075e+001  1.4344055e+002 -6.3824615e+001  1.7799162e+002 -5.5028052e+001  1.3312859e+002 -6.9015566e+000  4.8043407e+001  3.7112060e+001 -1.5484093e+001  1.9621599e+001 -1.5772405e+000 -4.6131561e+001  4.4043116e+001 -1.0073750e+002  5.4682851e+001 -1.0142566e+002  1.7137962e+001 -6.5327880e+001 -2.6923122e+001 -4.6452274e+001 -2.9873824e+001 -5.2804476e+001 -1.3839830e+001 -5.4480218e+001 -1.9831210e+001 -1.9834966e+001 -5.1057532e+001  2.1094034e+001 -6.9704932e+001  2.1636743e+001 -3.3392348e+001 -3.2092194e+001  2.9245656e+001 -7.9655700e+001  5.0639465e+001 -6.9890944e+001  1.4612358e+001 -1.2281818e+001 -5.2514019e+001  4.6256145e+001 -9.6038604e+001  6.0146695e+001 -9.2533091e+001  4.4622158e+001 -6.1075376e+001  1.7861026e+001 -2.5036253e+001  9.9928881e+000  4.1325432e+000  2.3752827e+001  1.1638112e+001  5.5334213e+001 -2.8560442e+001  7.9866273e+001 -8.0458817e+001  7.7347202e+001 -8.7352393e+001  1.7908659e+001 -2.5168613e+001 -7.8482313e+001  5.9327958e+001 -1.4524925e+002  8.2819344e+001 -1.1438485e+002  1.9674237e+001 -8.4196057e+000  5.6425646e+001  4.9601829e+002  4.2077408e+002  1.9483013e+002 -2.2255004e+002 -3.2188918e+002 -2.2030925e+002 -2.2002943e+002  3.2212560e+001 -1.4026890e+002  6.2097749e+001 -7.9564142e+001  3.2304992e+001 -3.2242790e+001  8.9859914e+000 -8.1712908e+000 -2.4140436e+000  3.7624328e+000 -8.1287342e+000  6.1093124e+000  6.0266958e-001  1.7567333e+000  1.7575935e+001  1.8402109e+000  1.7299097e+001  2.8437172e+001 -1.6048202e+001  9.5339767e+001 -6.7465227e+001  1.7332276e+002 -9.0644552e+001  1.9984978e+002 -6.3198951e+001  1.5457954e+002 -2.3714583e+000  7.4339136e+001  4.0311433e+001  6.7651651e+000  4.9036081e+001 -3.2416036e+001  3.7547374e+001 -5.4558622e+001  3.1721161e+001 -6.9611507e+001  2.6176597e+001 -6.4237228e+001  6.6391057e+000 -4.8551684e+001 -9.3939446e+000 -4.9208512e+001 -2.5245784e+000 -8.6815630e+001  4.5542639e+001 -1.3936623e+002  7.2745513e+001 -1.2889288e+002  3.1134862e+001 -5.0790455e+001 -6.0938483e+001  5.1514159e+001 -1.1980143e+002  7.9417131e+001 -8.3751550e+001  6.0520736e+000  1.1518232e+001 -8.9380762e+001  8.3378900e+001 -1.1680863e+002  5.9655186e+001 -5.0058250e+001 -2.4140519e+001  3.3719700e+001 -8.9326239e+001  6.7423917e+001
